5 431          # first data record, number of data records
# XS_nm_spectr_hgbrobr_cas1612_vtzp_d10.txt
# without temperature correction
# E[nm] sigma(E)[cm2/molecule]
   170.00000000000000        1.1442200713823762E-017   1.0537278513050016E-018
   171.00000000000000        1.2898358270136283E-017   1.2012926603222661E-018
   172.00000000000000        1.4766280635997857E-017   1.2860041375732775E-018
   173.00000000000000        1.7461639130759387E-017   1.2379714267483721E-018
   174.00000000000000        2.0655688702558021E-017   1.3081023576214112E-018
   175.00000000000000        2.2011768098691527E-017   1.3042010874684955E-018
   176.00000000000000        2.0547167929705469E-017   1.2621897454643989E-018
   177.00000000000000        1.7779587175944747E-017   1.3070423754223335E-018
   178.00000000000000        1.5109194943540042E-017   1.2864306501969837E-018
   179.00000000000000        1.3450902885921606E-017   1.2469544341671524E-018
   180.00000000000000        1.3419882796946534E-017   1.2726663749434503E-018
   181.00000000000000        1.4809453551203512E-017   1.2887339099647002E-018
   182.00000000000000        1.7044972187677910E-017   1.2855127767866136E-018
   183.00000000000000        2.0133426662310308E-017   1.3107619310015892E-018
   184.00000000000000        2.3921818278765826E-017   1.4370151902194592E-018
   185.00000000000000        2.7427813514419854E-017   1.5809745941166217E-018
   186.00000000000000        3.0194140889722131E-017   1.6435232466715372E-018
   187.00000000000000        3.2400520208316119E-017   1.6146435770765326E-018
   188.00000000000000        3.3671165856311397E-017   1.6836435534018448E-018
   189.00000000000000        3.3127749969190218E-017   1.9305352858898154E-018
   190.00000000000000        3.0346830604905919E-017   2.0087587498960893E-018
   191.00000000000000        2.6044920178759947E-017   1.8996300835213951E-018
   192.00000000000000        2.1467466694269206E-017   1.6879876376974083E-018
   193.00000000000000        1.7583029698554037E-017   1.3516846340376883E-018
   194.00000000000000        1.5114222663236345E-017   1.0848192617987948E-018
   195.00000000000000        1.4222578864445047E-017   1.0184233559899514E-018
   196.00000000000000        1.4148262482231812E-017   9.7539701132602417E-019
   197.00000000000000        1.4078540660301331E-017   8.6393496187905416E-019
   198.00000000000000        1.4068197373001050E-017   7.6943850108551306E-019
   199.00000000000000        1.4438942137324434E-017   8.1812526498449109E-019
   200.00000000000000        1.4848183886766702E-017   9.1309323648606100E-019
   201.00000000000000        1.4646062668863031E-017   9.2386470299082746E-019
   202.00000000000000        1.3693718910135860E-017   8.1971548441917957E-019
   203.00000000000000        1.2339579835202471E-017   6.8804913803119812E-019
   204.00000000000000        1.0950047373281225E-017   6.1457996541700470E-019
   205.00000000000000        9.8393673111684422E-018   6.0480321389908954E-019
   206.00000000000000        9.3493322221536061E-018   7.2165867373916287E-019
   207.00000000000000        9.6273655915242824E-018   9.4170424695926766E-019
   208.00000000000000        1.0451635340831589E-017   1.1586899642377303E-018
   209.00000000000000        1.1429712250962101E-017   1.2869992468258243E-018
   210.00000000000000        1.2303473168385077E-017   1.2909517834372442E-018
   211.00000000000000        1.3028558746834964E-017   1.2150068873629601E-018
   212.00000000000000        1.3596524774705570E-017   1.1711587113781105E-018
   213.00000000000000        1.3859944907255362E-017   1.1739843983572641E-018
   214.00000000000000        1.3632840364874926E-017   1.1467066074280951E-018
   215.00000000000000        1.2909541550555513E-017   1.0831394663526272E-018
   216.00000000000000        1.1870029689139264E-017   1.0230140258822118E-018
   217.00000000000000        1.0750353286475353E-017   9.5907138704514035E-019
   218.00000000000000        9.8218871609051640E-018   8.8538969028592281E-019
   219.00000000000000        9.3872486284740587E-018   8.8246540607703195E-019
   220.00000000000000        9.6135796828758730E-018   1.0071266268009262E-018
   221.00000000000000        1.0364398377699538E-017   1.1668860430556837E-018
   222.00000000000000        1.1293633038288292E-017   1.2766893899601807E-018
   223.00000000000000        1.2127337154910284E-017   1.3330260021089181E-018
   224.00000000000000        1.2837646682728970E-017   1.3713116965653665E-018
   225.00000000000000        1.3573498564609558E-017   1.4480761966662392E-018
   226.00000000000000        1.4455183852657668E-017   1.5766294416527294E-018
   227.00000000000000        1.5413561188113132E-017   1.7088357770556314E-018
   228.00000000000000        1.6165072861617983E-017   1.8131954072365408E-018
   229.00000000000000        1.6321386086736385E-017   1.8705461652908491E-018
   230.00000000000000        1.5611642918896181E-017   1.8386690866621866E-018
   231.00000000000000        1.4113848783411899E-017   1.6928130330236486E-018
   232.00000000000000        1.2286306592899834E-017   1.4849980692959484E-018
   233.00000000000000        1.0713408242919884E-017   1.3255897670871250E-018
   234.00000000000000        9.7671837464180520E-018   1.2760782023155636E-018
   235.00000000000000        9.4614661743030738E-018   1.3003522320827410E-018
   236.00000000000000        9.5563783077989199E-018   1.3442903819989158E-018
   237.00000000000000        9.7598299163815532E-018   1.3751325869742654E-018
   238.00000000000000        9.8718819823024774E-018   1.3684535631738614E-018
   239.00000000000000        9.8240147485724449E-018   1.3204730666489542E-018
   240.00000000000000        9.6338936339240147E-018   1.2673282161586399E-018
   241.00000000000000        9.3242357644399948E-018   1.2516009478751984E-018
   242.00000000000000        8.8704826504536388E-018   1.2556904627132228E-018
   243.00000000000000        8.2181333862339184E-018   1.2216802677368351E-018
   244.00000000000000        7.3468185650459676E-018   1.1216295597476090E-018
   245.00000000000000        6.3197781526589965E-018   9.6490159155469554E-019
   246.00000000000000        5.2784488790785274E-018   7.7240409478019649E-019
   247.00000000000000        4.3870828720472937E-018   5.7121020682280046E-019
   248.00000000000000        3.7633404961196380E-018   3.9869804291687636E-019
   249.00000000000000        3.4358300579658181E-018   2.9654060175679542E-019
   250.00000000000000        3.3475192235939315E-018   2.8967387268279450E-019
   251.00000000000000        3.3916235292214539E-018   3.5184460921705789E-019
   252.00000000000000        3.4537130360754425E-018   4.3009425604956473E-019
   253.00000000000000        3.4452879671777011E-018   4.8005472317101365E-019
   254.00000000000000        3.3257058473712985E-018   4.7657054273236729E-019
   255.00000000000000        3.1080960855847045E-018   4.2114897416828515E-019
   256.00000000000000        2.8442888702686436E-018   3.3765487230322875E-019
   257.00000000000000        2.5945498699510345E-018   2.5712902078416185E-019
   258.00000000000000        2.3992378477412416E-018   2.0172086940208352E-019
   259.00000000000000        2.2671361869947785E-018   1.7479300040446508E-019
   260.00000000000000        2.1817578394546250E-018   1.6542570122020136E-019
   261.00000000000000        2.1161348821305965E-018   1.6354893827587200E-019
   262.00000000000000        2.0460029933243846E-018   1.6461397751149806E-019
   263.00000000000000        1.9569226578229352E-018   1.6564586616235462E-019
   264.00000000000000        1.8456232339667563E-018   1.6364563953546990E-019
   265.00000000000000        1.7173860253013358E-018   1.5677075300078021E-019
   266.00000000000000        1.5814620658117827E-018   1.4515512694987545E-019
   267.00000000000000        1.4467034694731899E-018   1.3051308668555180E-019
   268.00000000000000        1.3191640475830099E-018   1.1538502212317211E-019
   269.00000000000000        1.2019694997787233E-018   1.0250187139161977E-019
   270.00000000000000        1.0963130602810583E-018   9.3757613240289470E-020
   271.00000000000000        1.0022238597621970E-018   8.8894068035812949E-020
   272.00000000000000        9.1868074377404736E-019   8.5695835108938255E-020
   273.00000000000000        8.4356549054556616E-019   8.2052350651848556E-020
   274.00000000000000        7.7404652281889254E-019   7.7431832742502801E-020
   275.00000000000000        7.0743816098560818E-019   7.2423474520877909E-020
   276.00000000000000        6.4209108896432890E-019   6.7428854783442389E-020
   277.00000000000000        5.7785194736715067E-019   6.2197370487663032E-020
   278.00000000000000        5.1594972598358355E-019   5.6456283277685273E-020
   279.00000000000000        4.5846360676654998E-019   5.0465819722624732E-020
   280.00000000000000        4.0761474411264370E-019   4.4881810285908348E-020
   281.00000000000000        3.6507557166655233E-019   4.0312406709990751E-020
   282.00000000000000        3.3144532578674253E-019   3.7016190606424876E-020
   283.00000000000000        3.0602866219381229E-019   3.4851270599674528E-020
   284.00000000000000        2.8700406081162931E-019   3.3422709174218944E-020
   285.00000000000000        2.7193891264519819E-019   3.2303321370162567E-020
   286.00000000000000        2.5845899856963903E-019   3.1172373842139427E-020
   287.00000000000000        2.4481569808023283E-019   2.9824821970082615E-020
   288.00000000000000        2.3016114698837207E-019   2.8128354334537867E-020
   289.00000000000000        2.1449209665162936E-019   2.6015359687187096E-020
   290.00000000000000        1.9836374374125167E-019   2.3523933404004492E-020
   291.00000000000000        1.8253678129536554E-019   2.0837639588515352E-020
   292.00000000000000        1.6769557714565198E-019   1.8268991486856073E-020
   293.00000000000000        1.5430069267784655E-019   1.6162833793195295E-020
   294.00000000000000        1.4256470949936039E-019   1.4734728639606151E-020
   295.00000000000000        1.3249935286919420E-019   1.3937147705989484E-020
   296.00000000000000        1.2397997756271134E-019   1.3496662868898434E-020
   297.00000000000000        1.1679602507395334E-019   1.3102732860307879E-020
   298.00000000000000        1.1068235901413293E-019   1.2564463208593652E-020
   299.00000000000000        1.0534193596161887E-019   1.1850444199744942E-020
   300.00000000000000        1.0047171672954822E-019   1.1049067362375382E-020
   301.00000000000000        9.5796468327781032E-020   1.0295571508334081E-020
   302.00000000000000        9.1107308375251061E-020   9.6954954010854020E-021
   303.00000000000000        8.6299038197595869E-020   9.2751106756743176E-021
   304.00000000000000        8.1403217684922872E-020   8.9859925711741948E-021
   305.00000000000000        7.6619526882817437E-020   8.7613055741884944E-021
   306.00000000000000        7.2351758768711136E-020   8.6128026791439677E-021
   307.00000000000000        6.9252236725791948E-020   8.8483990920384649E-021
   308.00000000000000        6.8265655106423740E-020   1.0546545606080985E-020
   309.00000000000000        7.0639834417733720E-020   1.5653537935330408E-020
   310.00000000000000        7.7845261145447364E-020   2.5983622663709666E-020
   311.00000000000000        9.1338706084738229E-020   4.2889439159663794E-020
   312.00000000000000        1.1214509645050748E-019   6.7304936704206726E-020
   313.00000000000000        1.4032689565039341E-019   9.9226333589369685E-020
   314.00000000000000        1.7453375441298892E-019   1.3710489514935076E-019
   315.00000000000000        2.1190853239561984E-019   1.7758218227094230E-019
   316.00000000000000        2.4859207080532458E-019   2.1580058828483341E-019
   317.00000000000000        2.8088770444711277E-019   2.4632113293497570E-019
   318.00000000000000        3.0687099405459021E-019   2.6443662497204228E-019
   319.00000000000000        3.2798408492964349E-019   2.6750487770561447E-019
   320.00000000000000        3.5006577126238083E-019   2.5598486132813161E-019
   321.00000000000000        3.8339694248032558E-019   2.3419032630033526E-019
   322.00000000000000        4.4164450802749466E-019   2.1113131711509505E-019
   323.00000000000000        5.3994829787622752E-019   2.0070970036269918E-019
   324.00000000000000        6.9268172212122828E-019   2.1602505404539188E-019
   325.00000000000000        9.1152858322085835E-019   2.5803125468788913E-019
   326.00000000000000        1.2044123842302127E-018   3.1665890595531606E-019
   327.00000000000000        1.5755110605896319E-018   3.8075370867930162E-019
   328.00000000000000        2.0261760224392584E-018   4.4211814146689675E-019
   329.00000000000000        2.5561943605350306E-018   4.9611608800655277E-019
   330.00000000000000        3.1646491400937316E-018   5.4203302812023643E-019
   331.00000000000000        3.8497520730036846E-018   5.8294428936491911E-019
   332.00000000000000        4.6074302035937705E-018   6.2424036871786078E-019
   333.00000000000000        5.4289936013572636E-018   6.7086124497895876E-019
   334.00000000000000        6.2986731386806805E-018   7.2474661980434440E-019
   335.00000000000000        7.1920087501529110E-018   7.8428589129193020E-019
   336.00000000000000        8.0759180739741487E-018   8.4577709246430764E-019
   337.00000000000000        8.9108435175680633E-018   9.0522606766692462E-019
   338.00000000000000        9.6548075678363824E-018   9.5915187217300011E-019
   339.00000000000000        1.0268665557153717E-017   1.0044370100695807E-018
   340.00000000000000        1.0721470644895346E-017   1.0380799936508359E-018
   341.00000000000000        1.0994753804760598E-017   1.0575343787396365E-018
   342.00000000000000        1.1084716880925548E-017   1.0615976447507660E-018
   343.00000000000000        1.1001814701282599E-017   1.0512361922953448E-018
   344.00000000000000        1.0767852457300107E-017   1.0296864806667172E-018
   345.00000000000000        1.0411362646742629E-017   1.0015809024473163E-018
   346.00000000000000        9.9624480075924795E-018   9.7141860593874744E-019
   347.00000000000000        9.4483403959765658E-018   9.4212388748604946E-019
   348.00000000000000        8.8906137150695782E-018   9.1441692454653439E-019
   349.00000000000000        8.3044219698295666E-018   8.8720133304418613E-019
   350.00000000000000        7.6995178125342134E-018   8.5855887635693209E-019
   351.00000000000000        7.0823492649959121E-018   8.2676290828086766E-019
   352.00000000000000        6.4583605519910292E-018   7.9098493837973909E-019
   353.00000000000000        5.8337484437701829E-018   7.5164312725109659E-019
   354.00000000000000        5.2162561569730507E-018   7.1037695116664462E-019
   355.00000000000000        4.6149776066772133E-018   6.6956396496209745E-019
   356.00000000000000        4.0394581349818936E-018   6.3137901882623495E-019
   357.00000000000000        3.4985300119324629E-018   5.9671501887190563E-019
   358.00000000000000        2.9992997037557739E-018   5.6458713880173407E-019
   359.00000000000000        2.5465570503216788E-018   5.3248969299674271E-019
   360.00000000000000        2.1426822585187598E-018   4.9752926592243228E-019
   361.00000000000000        1.7879595157024826E-018   4.5764247729225706E-019
   362.00000000000000        1.4811122706744388E-018   4.1230213996074262E-019
   363.00000000000000        1.2198642656661223E-018   3.6256386040923160E-019
   364.00000000000000        1.0013818326605112E-018   3.1064576562784328E-019
   365.00000000000000        8.2253225075750427E-019   2.5933312361019974E-019
   366.00000000000000        6.7996750612320433E-019   2.1145130665458077E-019
   367.00000000000000        5.7009219335544700E-019   1.6955019043521904E-019
   368.00000000000000        4.8899269430913954E-019   1.3580987572161725E-019
   369.00000000000000        4.3239724070140069E-019   1.1195083492264282E-019
   370.00000000000000        3.9571306337881466E-019   9.8660921855107372E-020
   371.00000000000000        3.7415759126295244E-019   9.4576543646144782E-020
   372.00000000000000        3.6297308214725012E-019   9.6399950382484760E-020
   373.00000000000000        3.5769278981349385E-019   1.0059764810460207E-019
   374.00000000000000        3.5441431673818758E-019   1.0462920511406714E-019
   375.00000000000000        3.5003321870019572E-019   1.0702652158961307E-019
   376.00000000000000        3.4239693083301405E-019   1.0708940837546634E-019
   377.00000000000000        3.3035387842814738E-019   1.0463458325377670E-019
   378.00000000000000        3.1369192723283261E-019   9.9838204825368349E-020
   379.00000000000000        2.9297986371855725E-019   9.3126305062062017E-020
   380.00000000000000        2.6934117704711687E-019   8.5083536883110493E-020
   381.00000000000000        2.4419801632536389E-019   7.6372612915343761E-020
   382.00000000000000        2.1902373045888636E-019   6.7667463047164364E-020
   383.00000000000000        1.9513582345704683E-019   5.9602551769063024E-020
   384.00000000000000        1.7354995279049698E-019   5.2730883257685933E-020
   385.00000000000000        1.5490284772313767E-019   4.7470146606602170E-020
   386.00000000000000        1.3944050507019896E-019   4.4021038537652650E-020
   387.00000000000000        1.2705957820176692E-019   4.2290144472896139E-020
   388.00000000000000        1.1738522983294415E-019   4.1901200608174536E-020
   389.00000000000000        1.0986763089060523E-019   4.2323966836690188E-020
   390.00000000000000        1.0388093082328246E-019   4.3033738305246416E-020
   391.00000000000000        9.8811876621077152E-020   4.3609654619057958E-020
   392.00000000000000        9.4129381671467684E-020   4.3761777678945528E-020
   393.00000000000000        8.9430524965260872E-020   4.3320031856509633E-020
   394.00000000000000        8.4462215125494027E-020   4.2211871793410725E-020
   395.00000000000000        7.9120790450460366E-020   4.0440160558475854E-020
   396.00000000000000        7.3433988349293086E-020   3.8064172056117680E-020
   397.00000000000000        6.7530947682117513E-020   3.5183586284795764E-020
   398.00000000000000        6.1606235228223065E-020   3.1924638587020759E-020
   399.00000000000000        5.5883426113655468E-020   2.8427691166612715E-020
   400.00000000000000        5.0582705200475841E-020   2.4835901575612640E-020
   401.00000000000000        4.5895530958344119E-020   2.1285142537838498E-020
   402.00000000000000        4.1967869486549080E-020   1.7895705334183797E-020
   403.00000000000000        3.8892094239732321E-020   1.4766472099278256E-020
   404.00000000000000        3.6706529142685183E-020   1.1972133742005772E-020
   405.00000000000000        3.5400884732663895E-020   9.5636809627651222E-021
   406.00000000000000        3.4925515165160584E-020   7.5717559853666041E-021
   407.00000000000000        3.5202458625195699E-020   6.0111590843868112E-021
   408.00000000000000        3.6136521823611082E-020   4.8822379971265215E-021
   409.00000000000000        3.7625120356225905E-020   4.1628697389827029E-021
   410.00000000000000        3.9566085963071705E-020   3.7934310184044926E-021
   411.00000000000000        4.1863116177990037E-020   3.6781069650350717E-021
   412.00000000000000        4.4428918099791792E-020   3.7153470204896257E-021
   413.00000000000000        4.7186362189262235E-020   3.8279087882244766E-021
   414.00000000000000        5.0068114236847567E-020   3.9691247622514104E-021
   415.00000000000000        5.3015269770801986E-020   4.1146134709589062E-021
   416.00000000000000        5.5975498230998368E-020   4.2527892849335499E-021
   417.00000000000000        5.8901137778330510E-020   4.3785607519851319E-021
   418.00000000000000        6.1747585657236631E-020   4.4899062840938076E-021
   419.00000000000000        6.4472218662156429E-020   4.5861965184038496E-021
   420.00000000000000        6.7033964259700619E-020   4.6674309566447902E-021
